frequency(KHz)            input                  off                     on
0.00499975001249938	-197.935196169710	-245.721815578205	-215.420288860141
0.00999950002499875	-197.935192603264	-223.421857076771	-216.136890209463
0.0149992500374981	-197.935181903926	-235.836970138284	-215.409328379648
0.0199990000499975	-197.935164071767	-232.619490467400	-214.345080328363
0.0249987500624969	-197.935139106824	-233.377530701161	-213.507088424419
0.0299985000749962	-197.935107009185	-229.288717429678	-215.451060745987
0.0349982500874956	-197.935067778936	-225.010951056322	-220.507370730978
0.0399980000999950	-197.935021416245	-233.753146873343	-218.548550381556
0.0449977501124944	-197.934967921268	-227.832446497196	-216.572723201509
0.0499975001249937	-197.934907294183	-225.481514462798	-218.425054092722
0.0549972501374931	-197.934839535161	-243.232465412932	-222.645517165802
0.0599970001499925	-197.934764644479	-227.323829276906	-231.400449705637
0.0649967501624919	-197.934682622369	-231.022828290031	-224.995247434858
0.0699965001749913	-197.934593469126	-225.684226673474	-222.593778732308
0.0749962501874906	-197.934497185031	-223.701696985595	-229.808975118426
0.0799960001999900	-197.934393770416	-238.077641490409	-227.054303662521
0.0849957502124894	-197.934283225630	-224.047089948958	-223.044312165249
0.0899955002249887	-197.934165551067	-233.141395021801	-220.691578574185
0.0949952502374881	-197.934040747126	-231.490222209505	-220.197209046397
0.0999950002499875	-197.933908814220	-229.152862639270	-224.500751665199
0.104994750262487	-197.933769752795	-227.646669531483	-220.477496813711
0.109994500274986	-197.933623563340	-250.999931947284	-218.823542922110
0.114994250287486	-197.933470246315	-238.197982833330	-222.280414505867
0.119994000299985	-197.933309802285	-226.333253472556	-223.710929323010
0.124993750312484	-197.933142231767	-226.018087258759	-218.364164893402
0.129993500324984	-197.932967535357	-230.867258566971	-216.063003029783
0.134993250337483	-197.932785713614	-222.247178676626	-215.688096613984
0.139993000349983	-197.932596767167	-232.244295144751	-214.591508820587
0.144992750362482	-197.932400696690	-227.899798069263	-211.566196551969
0.149992500374981	-197.932197502793	-234.908456055592	-210.867360921927
0.154992250387481	-197.931987186222	-222.713442595994	-212.086153696140
0.159992000399980	-197.931769747653	-224.311921318972	-213.155739942540
0.164991750412479	-197.931545187829	-247.932031450846	-211.946428409681
0.169991500424979	-197.931313507524	-228.791299974587	-210.967834964402
0.174991250437478	-197.931074707533	-223.021002234921	-211.090954025055
0.179991000449977	-197.930828788636	-228.861357720065	-213.852885972594
0.184990750462477	-197.930575751678	-228.703393222033	-216.866609603254
0.189990500474976	-197.930315597544	-231.343930926580	-214.916918248873
0.194990250487476	-197.930048327083	-241.405660146381	-213.599796611891
0.199990000499975	-197.929773941245	-231.155244945251	-213.563629876806
0.204989750512474	-197.929492440904	-230.820037921986	-214.038851002904
0.209989500524974	-197.929203827040	-221.700532861359	-215.935614845878
0.214989250537473	-197.928908100643	-234.164743210954	-214.503384362838
0.219989000549973	-197.928605262703	-223.159982130821	-212.642033897906
0.224988750562472	-197.928295314258	-223.528673107431	-212.366921756726
0.229988500574971	-197.927978256346	-224.949499469326	-213.302598570005
0.234988250587471	-197.927654090036	-222.538922105730	-213.072641799188
0.239988000599970	-197.927322816465	-220.797152990920	-212.315766768751
0.244987750612469	-197.926984436710	-225.040304969442	-213.050147197413
0.249987500624969	-197.926638951930	-229.780611996887	-216.761688633999
0.254987250637468	-197.926286363301	-235.520404503183	-215.535639617827
0.259987000649968	-197.925926672018	-227.923411317360	-211.470034080922
0.264986750662467	-197.925559879284	-224.532860297997	-210.910200787204
0.269986500674966	-197.925185986368	-229.548918969454	-213.378336695354
0.274986250687466	-197.924804994533	-221.654160091027	-216.848037042784
0.279986000699965	-197.924416905036	-224.813628443900	-217.090133892500
0.284985750712464	-197.924021719221	-227.316119511196	-216.705016989060
0.289985500724964	-197.923619438398	-221.047026523696	-219.507502623665
0.294985250737463	-197.923210063954	-230.846353710968	-222.355187174501
0.299985000749963	-197.922793597254	-229.104519065713	-221.799316254576
0.304984750762462	-197.922370039724	-229.377339080280	-219.659822370200
0.309984500774961	-197.921939392772	-227.155364261613	-216.938011965579
0.314984250787461	-197.921501657867	-235.206321667973	-215.599978870450
0.319984000799960	-197.921056836497	-221.312770544282	-215.479123825885
0.324983750812459	-197.920604930155	-226.122898586892	-214.488993851780
0.329983500824959	-197.920145940362	-224.450921942067	-213.695768333655
0.334983250837458	-197.919679868671	-224.707508087118	-213.998805059970
0.339983000849958	-197.919206716652	-228.675738116608	-216.149267130672
0.344982750862457	-197.918726485912	-227.625378235474	-220.109652449052
0.349982500874956	-197.918239178062	-224.349304180325	-216.603709730700
0.354982250887456	-197.917744794748	-232.143808413094	-216.132732663268
0.359982000899955	-197.917243337642	-227.681100148637	-217.133837517755
0.364981750912454	-197.916734808422	-235.390983297073	-221.172579758544
0.369981500924954	-197.916219208811	-234.000077600111	-220.368509642699
0.374981250937453	-197.915696540553	-226.715292123857	-214.828143043490
0.379981000949952	-197.915166805402	-233.795311386187	-213.525790443115
0.384980750962452	-197.914630005128	-221.380378223058	-217.277519372864
0.389980500974951	-197.914086141557	-220.984012397469	-236.932497293512
0.394980250987451	-197.913535216515	-216.669875554733	-218.400845353679
0.399980000999950	-197.912977231856	-218.607286667531	-214.674990841201
0.404979751012449	-197.912412189455	-215.895549124681	-215.320954005349
0.409979501024949	-197.911840091207	-216.278786561710	-218.029501310177
0.414979251037448	-197.911260939049	-221.459593130574	-217.206603911013
0.419979001049947	-197.910674734925	-223.045962703289	-215.277287045982
0.424978751062447	-197.910081480797	-223.604144438070	-219.643566090827
0.429978501074946	-197.909481178648	-225.668512708538	-224.024292687309
0.434978251087446	-197.908873830514	-230.065097264555	-216.443774273038
0.439978001099945	-197.908259438444	-221.732100425859	-213.377912689367
0.444977751112444	-197.907638004459	-223.473725862483	-215.239459999476
0.449977501124944	-197.907009530685	-220.686638860579	-218.056355581546
0.454977251137443	-197.906374019207	-219.505446509726	-215.029471359012
0.459977001149942	-197.905731472163	-217.606165091324	-213.162786773497
0.464976751162442	-197.905081891705	-220.398611348453	-215.154576471501
0.469976501174941	-197.904425280011	-224.199771886684	-219.554823079527
0.474976251187441	-197.903761639290	-220.838791482788	-219.487113340307
0.479976001199940	-197.903090971754	-221.887819476457	-215.797956969162
0.484975751212439	-197.902413279637	-238.341803727834	-217.520897906128
0.489975501224939	-197.901728565226	-228.116781508838	-222.668167051850
0.494975251237438	-197.901036830806	-227.916091907825	-216.164874335165
0.499975001249937	-197.900338078692	-235.293990561403	-213.631368097726
0.504974751262437	-197.899632311211	-218.340690258493	-215.765572359675
0.509974501274936	-197.898919530733	-221.022550625258	-220.564350983110
0.514974251287436	-197.898199739631	-222.389387535309	-217.405326664719
0.519974001299935	-197.897472940326	-220.665563693865	-212.945717906517
0.524973751312434	-197.896739135210	-216.246052483322	-211.584688488417
0.529973501324934	-197.895998326767	-220.511354757469	-215.810878599932
0.534973251337433	-197.895250517453	-220.578135866652	-227.429636007030
0.539973001349932	-197.894495709762	-221.933668567455	-216.630411050908
0.544972751362432	-197.893733906212	-219.507452491387	-212.163524578234
0.549972501374931	-197.892965109342	-217.089777373006	-212.936782199724
0.554972251387431	-197.892189321704	-220.373622142756	-217.854217617710
0.559972001399930	-197.891406545897	-216.064945290916	-229.004798687797
0.564971751412429	-197.890616784525	-220.535112085057	-218.749270869357
0.569971501424929	-197.889820040194	-215.948426241819	-219.500519578432
0.574971251437428	-197.889016315581	-219.116691729810	-227.860519001144
0.579971001449927	-197.888205613341	-222.584314138965	-215.473131024807
0.584970751462427	-197.887387936176	-222.793140843182	-214.213245508307
0.589970501474926	-197.886563286792	-226.003760778436	-216.573446160930
0.594970251487426	-197.885731667952	-230.805073102574	-234.398280280822
0.599970001499925	-197.884893082392	-222.913336428699	-217.303347262704
0.604969751512424	-197.884047532892	-222.711887791030	-212.985511873563
0.609969501524924	-197.883195022278	-234.633301285292	-214.958957293621
0.614969251537423	-197.882335553358	-218.141478114328	-225.264012578036
0.619969001549923	-197.881469128995	-218.860620072692	-218.036057660292
0.624968751562422	-197.880595752035	-220.965515781279	-214.156145766276
0.629968501574921	-197.879715425396	-219.408213051451	-215.090976870437
0.634968251587421	-197.878828151973	-215.257016511671	-226.470947815971
0.639968001599920	-197.877933934711	-215.918485762669	-221.213779225367
0.644967751612419	-197.877032776568	-214.204253043213	-215.805451243191
0.649967501624919	-197.876124680510	-215.487568323083	-216.810733258075
0.654967251637418	-197.875209649547	-215.383593841058	-221.570941143587
0.659967001649917	-197.874287686700	-215.803721869741	-214.347650323795
0.664966751662417	-197.873358795012	-213.904792089065	-211.470593878701
0.669966501674916	-197.872422977537	-215.856697942240	-212.448691105408
0.674966251687416	-197.871480237380	-217.442245615262	-214.797803678152
0.679966001699915	-197.870530577631	-214.880557870465	-218.306171056999
0.684965751712414	-197.869574001427	-218.372620609179	-231.511635949450
0.689965501724914	-197.868610511914	-218.857277496450	-219.254673331611
0.694965251737413	-197.867640112269	-218.247958854625	-218.462761039039
0.699965001749912	-197.866662805680	-218.713604271173	-216.876837263141
0.704964751762412	-197.865678595351	-221.191132310375	-216.864920792854
0.709964501774911	-197.864687484539	-220.436713642756	-221.052601072305
0.714964251787411	-197.863689476478	-224.578543609557	-224.818865237640
0.719964001799910	-197.862684574457	-221.371225938567	-220.465829676608
0.724963751812409	-197.861672781771	-228.609138974034	-221.924359453150
0.729963501824909	-197.860654101739	-230.030182254756	-220.637589847694
0.734963251837408	-197.859628537694	-227.975204225059	-224.826035327094
0.739963001849908	-197.858596093005	-231.701201853487	-223.952589621855
0.744962751862407	-197.857556771054	-220.592188053460	-219.013491576068
0.749962501874906	-197.856510575234	-217.460706165612	-218.787525919169
0.754962251887406	-197.855457508972	-218.324645586169	-220.150271777290
0.759962001899905	-197.854397575716	-217.117781024969	-226.041695221450
0.764961751912404	-197.853330778924	-219.532388488780	-225.409492941284
0.769961501924904	-197.852257122086	-219.827494415376	-218.304966218301
0.774961251937403	-197.851176608701	-226.502093627543	-219.211529776923
0.779961001949903	-197.850089242299	-226.692417674944	-216.455678053183
0.784960751962402	-197.848995026424	-223.349266787733	-214.379254549220
0.789960501974901	-197.847893964649	-217.109017662458	-216.490274995374
0.794960251987401	-197.846786060549	-214.992509210721	-217.906633589044
0.799960001999900	-197.845671317744	-214.467006059485	-219.937113244221
0.804959752012399	-197.844549739847	-216.457242026771	-215.798644055144
0.809959502024899	-197.843421330523	-216.758252041114	-212.029398686892
0.814959252037398	-197.842286093424	-220.143750820023	-213.758941848854
0.819959002049898	-197.841144032244	-216.797696491940	-215.219049973551
0.824958752062397	-197.839995150698	-215.693179715314	-216.734428684686
0.829958502074896	-197.838839452501	-223.396666340809	-216.918820558640
0.834958252087396	-197.837676941409	-217.306331954534	-222.522031147539
0.839958002099895	-197.836507621191	-217.282235308363	-235.586627587768
0.844957752112394	-197.835331495636	-221.954175000491	-218.766430039338
0.849957502124894	-197.834148568545	-232.920408122057	-215.434825720840
0.854957252137393	-197.832958843751	-221.637891017686	-221.020716448466
0.859957002149893	-197.831762325096	-221.104369068585	-230.312576266602
0.864956752162392	-197.830559016446	-219.115450278756	-220.541892197150
0.869956502174891	-197.829348921698	-219.594438565155	-217.463104978545
0.874956252187391	-197.828132044752	-218.797866799773	-219.517379627621
0.879956002199890	-197.826908389530	-223.409829638153	-221.950146681719
0.884955752212389	-197.825677959982	-224.854042922098	-221.569331788720
0.889955502224889	-197.824440760069	-225.767531810036	-217.873137345757
0.894955252237388	-197.823196793772	-237.313403162238	-218.021263004509
0.899955002249887	-197.821946065106	-227.972477891804	-225.841989054615
0.904954752262387	-197.820688578083	-231.666275698856	-229.676158281494
0.909954502274886	-197.819424336745	-227.201942844421	-221.759369591548
0.914954252287386	-197.818153345163	-221.895834409262	-222.853224196465
0.919954002299885	-197.816875607402	-219.616056071525	-232.877370418201
0.924953752312384	-197.815591127573	-227.844470171675	-223.880175497761
0.929953502324884	-197.814299909784	-219.711519168953	-219.784319960280
0.934953252337383	-197.813001958183	-217.820573775933	-214.682129306605
0.939953002349882	-197.811697276918	-221.344822342363	-215.261949201341
0.944952752362382	-197.810385870167	-216.405019401837	-215.919999855618
0.949952502374881	-197.809067742121	-217.368395491061	-214.768894322058
0.954952252387381	-197.807742896998	-219.056851758572	-218.500708296377
0.959952002399880	-197.806411339016	-226.683672629277	-223.372909876085
0.964951752412379	-197.805073072436	-226.340693988838	-215.637568204492
0.969951502424879	-197.803728101525	-219.352594366463	-213.057141759468
0.974951252437378	-197.802376430568	-220.546680599568	-213.840866069935
0.979951002449877	-197.801018063866	-221.765032743092	-217.544621051884
0.984950752462377	-197.799653005748	-217.369951075284	-222.639596437661
0.989950502474876	-197.798281260560	-216.995076709103	-214.465306816809
0.994950252487376	-197.796902832645	-215.907174946206	-212.296405416935
0.999950002499875	-197.795517726399	-216.768249612700	-216.062109434736
1.00494975251237	-197.794125946214	-224.443405521082	-230.681499879357
1.00994950252487	-197.792727496500	-220.778923639485	-221.192001469914
1.01494925253737	-197.791322381697	-231.473954391168	-214.942521900259
1.01994900254987	-197.789910606248	-222.332312294362	-214.728124597453
1.02494875256237	-197.788492174626	-221.589290662096	-219.791862146005
1.02994850257487	-197.787067091317	-217.835683526967	-222.732418092832
1.03494825258737	-197.785635360827	-215.710135633977	-225.739097738548
1.03994800259987	-197.784196987679	-218.186047860312	-222.044786533412
1.04494775261237	-197.782751976407	-216.292908281073	-214.770759046754
1.04994750262487	-197.781300331576	-211.768005628517	-215.557827363229
1.05494725263737	-197.779842057759	-214.043326919192	-212.501094930263
1.05994700264987	-197.778377159544	-214.351729617339	-213.602293753136
1.06494675266237	-197.776905641548	-215.702354481923	-218.033750269679
1.06994650267487	-197.775427508397	-226.413247604451	-217.956126585636
1.07494625268737	-197.773942764735	-222.142454472106	-216.502351139039
1.07994600269986	-197.772451415228	-212.637541567855	-219.966344220423
1.08494575271236	-197.770953464553	-212.096615848162	-216.994751721887
1.08994550272486	-197.769448917405	-215.968079865003	-216.008172235749
1.09494525273736	-197.767937778504	-215.049526351153	-215.153985339453
1.09994500274986	-197.766420052576	-215.711670116821	-220.220455322071
1.10494475276236	-197.764895744376	-227.624809355534	-230.335961636634
1.10994450277486	-197.763364858664	-226.726428143060	-221.320156962069
1.11494425278736	-197.761827400224	-228.288309611398	-217.335492411949
1.11994400279986	-197.760283373855	-220.089066821363	-224.023740283905
1.12494375281236	-197.758732784373	-224.843480201420	-228.617191137237
1.12994350282486	-197.757175636610	-222.842239688503	-223.722784606709
1.13494325283736	-197.755611935416	-230.130842433457	-222.221974358080
1.13994300284986	-197.754041685659	-216.865728576721	-227.061502075691
1.14494275286236	-197.752464892216	-219.727354036752	-246.105417302919
1.14994250287486	-197.750881559995	-215.071534538392	-217.656808602938
1.15494225288736	-197.749291693911	-215.718729672886	-219.419364509171
1.15994200289985	-197.747695298883	-219.608387227074	-223.251132961488
1.16494175291235	-197.746092379873	-217.423478433035	-231.738189697594
1.16994150292485	-197.744482941840	-219.370204069287	-216.848234081412
1.17494125293735	-197.742866989763	-218.341803444903	-213.019112839705
1.17994100294985	-197.741244528644	-218.584564957235	-213.059884861711
1.18494075296235	-197.739615563497	-216.165767117157	-216.596771881556
1.18994050297485	-197.737980099340	-213.561703349749	-218.266871119325
1.19494025298735	-197.736338141230	-213.560220990105	-217.494370877594
1.19994000299985	-197.734689694222	-211.722970032760	-211.846365676468
1.20493975301235	-197.733034763399	-210.125654925086	-211.217178553702
1.20993950302485	-197.731373353841	-210.667651475081	-211.318436687776
1.21493925303735	-197.729705470669	-214.084616569067	-212.223884738285
1.21993900304985	-197.728031119001	-212.167174901056	-212.251048733197
1.22493875306235	-197.726350303977	-218.686703990983	-214.919542016797
1.22993850307485	-197.724663030750	-215.815746944157	-220.621931113431
1.23493825308735	-197.722969304497	-218.717479950738	-224.650072463247
1.23993800309985	-197.721269130399	-218.494756416250	-213.354898899939
1.24493775311234	-197.719562513651	-220.338794890449	-212.384004461693
1.24993750312484	-197.717849459481	-219.022549977892	-213.629549812484
1.25493725313734	-197.716129973113	-221.326504507425	-228.124673204062
1.25993700314984	-197.714404059805	-215.254897403038	-220.092585983330
1.26493675316234	-197.712671724807	-224.668716192899	-216.470343744254
1.26993650317484	-197.710932973393	-217.381003598315	-218.394360081899
1.27493625318734	-197.709187810865	-216.140000888708	-222.450708630577
1.27993600319984	-197.707436242525	-223.298185086498	-216.867970852099
1.28493575321234	-197.705678273701	-217.377491855043	-213.037302563587
1.28993550322484	-197.703913909721	-221.262919377423	-214.596297307107
1.29493525323734	-197.702143155941	-230.371161752440	-230.188108688454
1.29993500324984	-197.700366017724	-221.362988641582	-216.992514582751
1.30493475326234	-197.698582500453	-219.076608038147	-212.097431524199
1.30993450327484	-197.696792609519	-220.925124684635	-212.740204713513
1.31493425328734	-197.694996350334	-219.646446020356	-216.899899368132
1.31993400329983	-197.693193728322	-215.017377135676	-225.636792387680
1.32493375331233	-197.691384748921	-213.346230045464	-213.003538492613
1.32993350332483	-197.689569417580	-212.282487749460	-211.274502981231
1.33493325333733	-197.687747739766	-214.377483909277	-213.168363189237
1.33993300334983	-197.685919720970	-214.138300174890	-214.712390088301
1.34493275336233	-197.684085366674	-217.124209884462	-217.585578560626
1.34993250337483	-197.682244682392	-218.352501414536	-216.062511844734
1.35493225338733	-197.680397673644	-219.934070558136	-213.267947193775
1.35993200339983	-197.678544345972	-217.626528025659	-220.562323411290
1.36493175341233	-197.676684704923	-220.023000832218	-221.223792263422
